# Format:   cluster index, cluster center cell index,    x center (m),    y center (m),    x bin number,    y bin number,    global bin number,     total number of cells,   list of cells
                        0,                        13,         -0.5217,        -1.40781,               0,               0,                    0,                        12, 0, 1, 2, 12, 13, 14, 24, 25, 26, 36, 37, 38
                        1,                        14,        -0.47877,        -1.40781,               0,               0,                    0,                        12, 1, 2, 3, 13, 14, 15, 25, 26, 27, 37, 38, 39
                        2,                        15,        -0.43422,        -1.40781,               0,               0,                    0,                        12, 2, 3, 4, 14, 15, 16, 26, 27, 28, 38, 39, 40
                        3,                        16,        -0.39129,        -1.40781,               1,               0,                    1,                        12, 3, 4, 5, 15, 16, 17, 27, 28, 29, 39, 40, 41
                        4,                        17,        -0.34837,        -1.40781,               1,               0,                    1,                        12, 4, 5, 6, 16, 17, 18, 28, 29, 30, 40, 41, 42
                        5,                        18,        -0.30382,        -1.40781,               1,               0,                    1,                        12, 5, 6, 7, 17, 18, 19, 29, 30, 31, 41, 42, 43
                        6,                        19,        -0.26089,        -1.40781,               2,               0,                    2,                        12, 6, 7, 8, 18, 19, 20, 30, 31, 32, 42, 43, 44
                        7,                        20,        -0.21796,        -1.40781,               2,               0,                    2,                        12, 7, 8, 9, 19, 20, 21, 31, 32, 33, 43, 44, 45
                        8,                        21,        -0.17341,        -1.40781,               2,               0,                    2,                        12, 8, 9, 10, 20, 21, 22, 32, 33, 34, 44, 45, 46
                        9,                        22,        -0.13049,        -1.40781,               3,               0,                    3,                        12, 9, 10, 11, 21, 22, 23, 33, 34, 35, 45, 46, 47
                       10,                        25,         -0.5217,        -1.36489,               0,               0,                    0,                        13, 0, 1, 2, 12, 13, 14, 24, 25, 26, 36, 37, 54, 55
                       11,                        26,        -0.47877,        -1.36489,               0,               0,                    0,                        15, 1, 2, 3, 13, 14, 15, 25, 26, 27, 36, 37, 38, 54, 55, 56
                       12,                        27,        -0.43422,        -1.36489,               0,               0,                    0,                        15, 2, 3, 4, 14, 15, 16, 26, 27, 28, 37, 38, 39, 55, 56, 57
                       13,                        28,        -0.39129,        -1.36489,               1,               0,                    1,                        15, 3, 4, 5, 15, 16, 17, 27, 28, 29, 38, 39, 40, 56, 57, 58
                       14,                        29,        -0.34837,        -1.36489,               1,               0,                    1,                        15, 4, 5, 6, 16, 17, 18, 28, 29, 30, 39, 40, 41, 57, 58, 59
                       15,                        30,        -0.30382,        -1.36489,               1,               0,                    1,                        15, 5, 6, 7, 17, 18, 19, 29, 30, 31, 40, 41, 42, 58, 59, 60
                       16,                        31,        -0.26089,        -1.36489,               2,               0,                    2,                        15, 6, 7, 8, 18, 19, 20, 30, 31, 32, 41, 42, 43, 59, 60, 61
                       17,                        32,        -0.21796,        -1.36489,               2,               0,                    2,                        15, 7, 8, 9, 19, 20, 21, 31, 32, 33, 42, 43, 44, 60, 61, 62
                       18,                        33,        -0.17341,        -1.36489,               2,               0,                    2,                        15, 8, 9, 10, 20, 21, 22, 32, 33, 34, 43, 44, 45, 61, 62, 63
                       19,                        34,        -0.13049,        -1.36489,               3,               0,                    3,                        15, 9, 10, 11, 21, 22, 23, 33, 34, 35, 44, 45, 46, 62, 63, 64
                       20,                        37,         -0.4821,        -1.32196,               0,               0,                    0,                        15, 13, 14, 15, 25, 26, 27, 36, 37, 38, 54, 55, 56, 72, 73, 74
                       21,                        38,        -0.43917,        -1.32196,               0,               0,                    0,                        15, 14, 15, 16, 26, 27, 28, 37, 38, 39, 55, 56, 57, 73, 74, 75
                       22,                        39,        -0.39462,        -1.32196,               1,               0,                    1,                        15, 15, 16, 17, 27, 28, 29, 38, 39, 40, 56, 57, 58, 74, 75, 76
                       23,                        40,        -0.35169,        -1.32196,               1,               0,                    1,                        15, 16, 17, 18, 28, 29, 30, 39, 40, 41, 57, 58, 59, 75, 76, 77
                       24,                        41,        -0.30877,        -1.32196,               1,               0,                    1,                        15, 17, 18, 19, 29, 30, 31, 40, 41, 42, 58, 59, 60, 76, 77, 78
                       25,                        42,        -0.26422,        -1.32196,               2,               0,                    2,                        15, 18, 19, 20, 30, 31, 32, 41, 42, 43, 59, 60, 61, 77, 78, 79
                       26,                        43,        -0.22129,        -1.32196,               2,               0,                    2,                        15, 19, 20, 21, 31, 32, 33, 42, 43, 44, 60, 61, 62, 78, 79, 80
                       27,                        44,        -0.17837,        -1.32196,               2,               0,                    2,                        15, 20, 21, 22, 32, 33, 34, 43, 44, 45, 61, 62, 63, 79, 80, 81
                       28,                        45,        -0.13381,        -1.32196,               3,               0,                    3,                        15, 21, 22, 23, 33, 34, 35, 44, 45, 46, 62, 63, 64, 80, 81, 82
                       29,                        46,        -0.09089,        -1.32196,               3,               0,                    3,                        13, 22, 23, 34, 35, 45, 46, 47, 63, 64, 65, 81, 82, 83
                       30,                        47,        -0.04796,        -1.32196,               3,               0,                    3,                        11, 12, 24, 46, 47, 48, 64, 65, 66, 82, 83, 84
                       31,                        48,        -0.00341,        -1.32196,               4,               0,                    4,                        11, 12, 24, 47, 48, 49, 65, 66, 67, 83, 84, 85
                       32,                        49,         0.03952,        -1.32196,               4,               0,                    4,                        11, 12, 24, 48, 49, 50, 66, 67, 68, 84, 85, 86
                       33,                        50,         0.08244,        -1.32196,               4,               0,                    4,                        11, 12, 24, 49, 50, 51, 67, 68, 69, 85, 86, 87
                       34,                        51,         0.12699,        -1.32196,               5,               0,                    5,                        11, 12, 24, 50, 51, 52, 68, 69, 70, 86, 87, 88
                       35,                        52,         0.16992,        -1.32196,               5,               0,                    5,                        11, 12, 24, 51, 52, 53, 69, 70, 71, 87, 88, 89
                       36,                        55,         -0.4821,        -1.27903,               0,               1,                   10,                        15, 24, 25, 26, 36, 37, 38, 54, 55, 56, 72, 73, 74, 90, 91, 92
                       37,                        56,        -0.43917,        -1.27903,               0,               1,                   10,                        15, 25, 26, 27, 37, 38, 39, 55, 56, 57, 73, 74, 75, 91, 92, 93
                       38,                        57,        -0.39462,        -1.27903,               1,               1,                   11,                        15, 26, 27, 28, 38, 39, 40, 56, 57, 58, 74, 75, 76, 92, 93, 94
                       39,                        58,        -0.35169,        -1.27903,               1,               1,                   11,                        15, 27, 28, 29, 39, 40, 41, 57, 58, 59, 75, 76, 77, 93, 94, 95
                       40,                        59,        -0.30877,        -1.27903,               1,               1,                   11,                        15, 28, 29, 30, 40, 41, 42, 58, 59, 60, 76, 77, 78, 94, 95, 96
                       41,                        60,        -0.26422,        -1.27903,               2,               1,                   12,                        15, 29, 30, 31, 41, 42, 43, 59, 60, 61, 77, 78, 79, 95, 96, 97
                       42,                        61,        -0.22129,        -1.27903,               2,               1,                   12,                        15, 30, 31, 32, 42, 43, 44, 60, 61, 62, 78, 79, 80, 96, 97, 98
                       43,                        62,        -0.17837,        -1.27903,               2,               1,                   12,                        15, 31, 32, 33, 43, 44, 45, 61, 62, 63, 79, 80, 81, 97, 98, 99
                       44,                        63,        -0.13381,        -1.27903,               3,               1,                   13,                        15, 32, 33, 34, 44, 45, 46, 62, 63, 64, 80, 81, 82, 98, 99, 100
                       45,                        64,        -0.09089,        -1.27903,               3,               1,                   13,                        15, 33, 34, 35, 45, 46, 47, 63, 64, 65, 81, 82, 83, 99, 100, 101
                       46,                        65,        -0.04796,        -1.27903,               3,               1,                   13,                        14, 34, 35, 46, 47, 48, 64, 65, 66, 82, 83, 84, 100, 101, 102
                       47,                        66,        -0.00341,        -1.27903,               4,               1,                   14,                        13, 35, 47, 48, 49, 65, 66, 67, 83, 84, 85, 101, 102, 103
                       48,                        67,         0.03952,        -1.27903,               4,               1,                   14,                        12, 48, 49, 50, 66, 67, 68, 84, 85, 86, 102, 103, 104
                       49,                        68,         0.08244,        -1.27903,               4,               1,                   14,                        12, 49, 50, 51, 67, 68, 69, 85, 86, 87, 103, 104, 105
                       50,                        69,         0.12699,        -1.27903,               5,               1,                   15,                        12, 50, 51, 52, 68, 69, 70, 86, 87, 88, 104, 105, 106
                       51,                        70,         0.16992,        -1.27903,               5,               1,                   15,                        12, 51, 52, 53, 69, 70, 71, 87, 88, 89, 105, 106, 107
                       52,                        73,         -0.4821,        -1.23611,               0,               1,                   10,                        15, 36, 37, 38, 54, 55, 56, 72, 73, 74, 91, 92, 93, 112, 113, 114
                       53,                        74,        -0.43917,        -1.23611,               0,               1,                   10,                        15, 37, 38, 39, 55, 56, 57, 73, 74, 75, 92, 93, 94, 113, 114, 115
                       54,                        75,        -0.39462,        -1.23611,               1,               1,                   11,                        15, 38, 39, 40, 56, 57, 58, 74, 75, 76, 93, 94, 95, 114, 115, 116
                       55,                        76,        -0.35169,        -1.23611,               1,               1,                   11,                        15, 39, 40, 41, 57, 58, 59, 75, 76, 77, 94, 95, 96, 115, 116, 117
                       56,                        77,        -0.30877,        -1.23611,               1,               1,                   11,                        15, 40, 41, 42, 58, 59, 60, 76, 77, 78, 95, 96, 97, 116, 117, 118
                       57,                        78,        -0.26422,        -1.23611,               2,               1,                   12,                        15, 41, 42, 43, 59, 60, 61, 77, 78, 79, 96, 97, 98, 117, 118, 119
                       58,                        79,        -0.22129,        -1.23611,               2,               1,                   12,                        15, 42, 43, 44, 60, 61, 62, 78, 79, 80, 97, 98, 99, 118, 119, 120
                       59,                        80,        -0.17837,        -1.23611,               2,               1,                   12,                        15, 43, 44, 45, 61, 62, 63, 79, 80, 81, 98, 99, 100, 119, 120, 121
                       60,                        81,        -0.13381,        -1.23611,               3,               1,                   13,                        15, 44, 45, 46, 62, 63, 64, 80, 81, 82, 99, 100, 101, 120, 121, 122
                       61,                        82,        -0.09089,        -1.23611,               3,               1,                   13,                        15, 45, 46, 47, 63, 64, 65, 81, 82, 83, 100, 101, 102, 121, 122, 123
                       62,                        83,        -0.04796,        -1.23611,               3,               1,                   13,                        15, 46, 47, 48, 64, 65, 66, 82, 83, 84, 101, 102, 103, 122, 123, 124
                       63,                        84,        -0.00341,        -1.23611,               4,               1,                   14,                        15, 47, 48, 49, 65, 66, 67, 83, 84, 85, 102, 103, 104, 123, 124, 125
                       64,                        85,         0.03952,        -1.23611,               4,               1,                   14,                        15, 48, 49, 50, 66, 67, 68, 84, 85, 86, 103, 104, 105, 124, 125, 126
                       65,                        86,         0.08244,        -1.23611,               4,               1,                   14,                        15, 49, 50, 51, 67, 68, 69, 85, 86, 87, 104, 105, 106, 125, 126, 127
                       66,                        87,         0.12699,        -1.23611,               5,               1,                   15,                        15, 50, 51, 52, 68, 69, 70, 86, 87, 88, 105, 106, 107, 126, 127, 128
                       67,                        88,         0.16992,        -1.23611,               5,               1,                   15,                        15, 51, 52, 53, 69, 70, 71, 87, 88, 89, 106, 107, 108, 127, 128, 129
                       68,                        91,         -0.5217,        -1.19318,               0,               1,                   10,                        13, 54, 55, 72, 73, 90, 91, 92, 111, 112, 113, 132, 133, 134
                       69,                        92,        -0.47877,        -1.19318,               0,               1,                   10,                        15, 54, 55, 56, 72, 73, 74, 91, 92, 93, 112, 113, 114, 133, 134, 135
                       70,                        93,        -0.43422,        -1.19318,               0,               1,                   10,                        15, 55, 56, 57, 73, 74, 75, 92, 93, 94, 113, 114, 115, 134, 135, 136
                       71,                        94,        -0.39129,        -1.19318,               1,               1,                   11,                        15, 56, 57, 58, 74, 75, 76, 93, 94, 95, 114, 115, 116, 135, 136, 137
                       72,                        95,        -0.34837,        -1.19318,               1,               1,                   11,                        15, 57, 58, 59, 75, 76, 77, 94, 95, 96, 115, 116, 117, 136, 137, 138
                       73,                        96,        -0.30382,        -1.19318,               1,               1,                   11,                        15, 58, 59, 60, 76, 77, 78, 95, 96, 97, 116, 117, 118, 137, 138, 139
                       74,                        97,        -0.26089,        -1.19318,               2,               1,                   12,                        15, 59, 60, 61, 77, 78, 79, 96, 97, 98, 117, 118, 119, 138, 139, 140
                       75,                        98,        -0.21796,        -1.19318,               2,               1,                   12,                        15, 60, 61, 62, 78, 79, 80, 97, 98, 99, 118, 119, 120, 139, 140, 141
                       76,                        99,        -0.17341,        -1.19318,               2,               1,                   12,                        15, 61, 62, 63, 79, 80, 81, 98, 99, 100, 119, 120, 121, 140, 141, 142
                       77,                       100,        -0.13049,        -1.19318,               3,               1,                   13,                        15, 62, 63, 64, 80, 81, 82, 99, 100, 101, 120, 121, 122, 141, 142, 143
                       78,                       101,        -0.08756,        -1.19318,               3,               1,                   13,                        15, 63, 64, 65, 81, 82, 83, 100, 101, 102, 121, 122, 123, 142, 143, 144
                       79,                       102,        -0.04301,        -1.19318,               3,               1,                   13,                        15, 64, 65, 66, 82, 83, 84, 101, 102, 103, 122, 123, 124, 143, 144, 145
                       80,                       103,          -8e-05,        -1.19318,               4,               1,                   14,                        15, 65, 66, 67, 83, 84, 85, 102, 103, 104, 123, 124, 125, 144, 145, 146
                       81,                       104,         0.04284,        -1.19318,               4,               1,                   14,                        15, 66, 67, 68, 84, 85, 86, 103, 104, 105, 124, 125, 126, 145, 146, 147
                       82,                       105,         0.08739,        -1.19318,               4,               1,                   14,                        15, 67, 68, 69, 85, 86, 87, 104, 105, 106, 125, 126, 127, 146, 147, 148
                       83,                       106,         0.13032,        -1.19318,               5,               1,                   15,                        15, 68, 69, 70, 86, 87, 88, 105, 106, 107, 126, 127, 128, 147, 148, 149
                       84,                       107,         0.17325,        -1.19318,               5,               1,                   15,                        15, 69, 70, 71, 87, 88, 89, 106, 107, 108, 127, 128, 129, 148, 149, 150
                       85,                       108,          0.2178,        -1.19318,               5,               1,                   15,                        13, 70, 71, 88, 89, 107, 108, 109, 128, 129, 130, 149, 150, 151
